# name:     Al2O3  corundum
# formula:  Al2O3
# sites:    Al1,O1
# refer1:   Wyckoff vol 2, V, p 6-8
# schoen:   D_3d^6
# POT  SCF  30  4.2000   0, core-hole, AFOLP (folp(0)= 1.150)
#   omega (eV)      epsilon_1       epsilon_2       n               kappa           mu (cm^(-1))    R               epsinv   
    0.100000E+00    0.256443E+01    0.114347E+00    0.888213E+00    0.302791E-01    0.306893E-02    0.946744E-01    0.899077E-02
    0.124689E+00    0.256443E+01    0.868234E-01    0.888110E+00    0.229921E-01    0.290571E-02    0.946171E-01    0.682966E-02
    0.152100E+00    0.253826E+01    0.753564E-01    0.881134E+00    0.200295E-01    0.308775E-02    0.935751E-01    0.601648E-02
    0.182231E+00    0.252705E+01    0.678866E-01    0.878132E+00    0.180729E-01    0.333806E-02    0.931247E-01    0.545506E-02
    0.215084E+00    0.251797E+01    0.666157E-01    0.875710E+00    0.177575E-01    0.387108E-02    0.927667E-01    0.538067E-02
    0.250658E+00    0.251034E+01    0.582613E-01    0.873654E+00    0.155475E-01    0.394990E-02    0.924559E-01    0.472676E-02
    0.288953E+00    0.250755E+01    0.513020E-01    0.872896E+00    0.136959E-01    0.401107E-02    0.923383E-01    0.416901E-02
    0.329969E+00    0.250764E+01    0.454680E-01    0.872909E+00    0.121383E-01    0.405953E-02    0.923358E-01    0.369490E-02
    0.373706E+00    0.250989E+01    0.405435E-01    0.873500E+00    0.108203E-01    0.409837E-02    0.924196E-01    0.329062E-02
    0.420164E+00    0.251404E+01    0.363576E-01    0.874602E+00    0.969742E-02    0.412970E-02    0.925793E-01    0.294399E-02
    0.469344E+00    0.252005E+01    0.327752E-01    0.876199E+00    0.873447E-02    0.415500E-02    0.928125E-01    0.264491E-02
    0.521245E+00    0.252801E+01    0.296892E-01    0.878315E+00    0.790316E-02    0.417528E-02    0.931228E-01    0.238512E-02
    0.575867E+00    0.253821E+01    0.270145E-01    0.881026E+00    0.718079E-02    0.419119E-02    0.935211E-01    0.215777E-02
    0.633210E+00    0.255111E+01    0.249777E-01    0.884449E+00    0.662732E-02    0.425333E-02    0.940247E-01    0.198063E-02
    0.693274E+00    0.256577E+01    0.255752E-01    0.888337E+00    0.677188E-02    0.475836E-02    0.945982E-01    0.201136E-02
    0.756059E+00    0.258179E+01    0.256684E-01    0.892574E+00    0.678135E-02    0.519655E-02    0.952231E-01    0.200067E-02
    0.821565E+00    0.260046E+01    0.254183E-01    0.897500E+00    0.669783E-02    0.557725E-02    0.959498E-01    0.196069E-02
    0.889793E+00    0.262265E+01    0.249375E-01    0.903338E+00    0.655098E-02    0.590797E-02    0.968113E-01    0.190011E-02
    0.960742E+00    0.264931E+01    0.243055E-01    0.910327E+00    0.636160E-02    0.619464E-02    0.978431E-01    0.182500E-02
    0.103441E+01    0.268186E+01    0.235783E-01    0.918827E+00    0.614393E-02    0.644144E-02    0.990988E-01    0.173924E-02
    0.111080E+01    0.272021E+01    0.258936E-01    0.928797E+00    0.671236E-02    0.755711E-02    0.100574E+00    0.187083E-02
    0.118991E+01    0.276454E+01    0.281312E-01    0.940256E+00    0.724936E-02    0.874296E-02    0.102269E+00    0.198491E-02
    0.127175E+01    0.281792E+01    0.296776E-01    0.953965E+00    0.759419E-02    0.978871E-02    0.104299E+00    0.203586E-02
    0.135630E+01    0.288493E+01    0.306892E-01    0.971038E+00    0.778504E-02    0.107019E-01    0.106827E+00    0.203326E-02
    0.144358E+01    0.296855E+01    0.368788E-01    0.992144E+00    0.925605E-02    0.135428E-01    0.109956E+00    0.234139E-02
    0.153357E+01    0.307371E+01    0.448419E-01    0.101837E+01    0.111084E-01    0.172664E-01    0.113845E+00    0.270180E-02
    0.162629E+01    0.321801E+01    0.511181E-01    0.105382E+01    0.124447E-01    0.205128E-01    0.119096E+00    0.287274E-02
    0.172173E+01    0.342396E+01    0.796190E-01    0.110341E+01    0.189262E-01    0.330272E-01    0.126446E+00    0.406682E-02
    0.181989E+01    0.376837E+01    0.112910E+00    0.118381E+01    0.258516E-01    0.476843E-01    0.138309E+00    0.496306E-02
    0.192077E+01    0.438227E+01    0.342046E+00    0.132114E+01    0.736806E-01    0.143441E+00    0.158657E+00    0.117599E-01
    0.200000E+01    0.474227E+01    0.138601E+01    0.141345E+01    0.287143E+00    0.582064E+00    0.177286E+00    0.397197E-01
    0.200136E+01    0.474330E+01    0.140685E+01    0.141417E+01    0.291374E+00    0.591044E+00    0.177556E+00    0.402363E-01
    0.200544E+01    0.474100E+01    0.146893E+01    0.141526E+01    0.304095E+00    0.618105E+00    0.178236E+00    0.418299E-01
    0.201225E+01    0.472838E+01    0.157123E+01    0.141540E+01    0.325252E+00    0.663351E+00    0.179186E+00    0.445320E-01
    0.202177E+01    0.469776E+01    0.171206E+01    0.141321E+01    0.354726E+00    0.726888E+00    0.180284E+00    0.483692E-01
    0.203401E+01    0.463963E+01    0.188914E+01    0.140700E+01    0.392428E+00    0.809016E+00    0.181407E+00    0.534044E-01
    0.204898E+01    0.454130E+01    0.209968E+01    0.139448E+01    0.438442E+00    0.910529E+00    0.182403E+00    0.597951E-01
    0.206667E+01    0.438172E+01    0.234040E+01    0.137174E+01    0.493394E+00    0.103349E+01    0.183009E+00    0.679552E-01
    0.208708E+01    0.411388E+01    0.260769E+01    0.132962E+01    0.559682E+00    0.118392E+01    0.182562E+00    0.791366E-01
    0.211021E+01    0.374058E+01    0.275357E+01    0.126085E+01    0.608969E+00    0.130246E+01    0.178170E+00    0.916169E-01
    0.213606E+01    0.338419E+01    0.270947E+01    0.118381E+01    0.620353E+00    0.134306E+01    0.169771E+00    0.102004E+00
    0.216463E+01    0.309553E+01    0.266233E+01    0.111900E+01    0.628205E+00    0.137825E+01    0.162683E+00    0.111575E+00
    0.219592E+01    0.280874E+01    0.261245E+01    0.105272E+01    0.636339E+00    0.141628E+01    0.155609E+00    0.122470E+00
    0.222994E+01    0.253838E+01    0.245515E+01    0.980543E+00    0.619817E+00    0.140088E+01    0.145195E+00    0.132368E+00
    0.226667E+01    0.233818E+01    0.225015E+01    0.918844E+00    0.586331E+00    0.134702E+01    0.134040E+00    0.138842E+00
    0.230613E+01    0.221090E+01    0.203445E+01    0.872441E+00    0.543261E+00    0.126980E+01    0.123599E+00    0.140803E+00
    0.234831E+01    0.214987E+01    0.182327E+01    0.842469E+00    0.494790E+00    0.117766E+01    0.114671E+00    0.137647E+00
    0.239320E+01    0.213640E+01    0.164834E+01    0.827507E+00    0.450980E+00    0.109391E+01    0.108335E+00    0.131300E+00
    0.244082E+01    0.216592E+01    0.147538E+01    0.824658E+00    0.404291E+00    0.100017E+01    0.103598E+00    0.120935E+00
    0.249117E+01    0.223869E+01    0.134994E+01    0.836771E+00    0.367475E+00    0.927843E+00    0.102077E+00    0.109649E+00
    0.254423E+01    0.232680E+01    0.127577E+01    0.856047E+00    0.343679E+00    0.886241E+00    0.102830E+00    0.100493E+00
    0.260001E+01    0.244099E+01    0.120303E+01    0.882316E+00    0.319562E+00    0.842120E+00    0.104711E+00    0.905372E-01
    0.265852E+01    0.256430E+01    0.123089E+01    0.915091E+00    0.321367E+00    0.865933E+00    0.109367E+00    0.865650E-01
    0.271974E+01    0.266495E+01    0.127681E+01    0.942413E+00    0.328666E+00    0.905996E+00    0.113642E+00    0.847700E-01
    0.278369E+01    0.276872E+01    0.134183E+01    0.970937E+00    0.340404E+00    0.960414E+00    0.118380E+00    0.838447E-01
    0.285036E+01    0.284391E+01    0.150258E+01    0.996381E+00    0.376326E+00    0.108719E+01    0.124387E+00    0.882136E-01
    0.291975E+01    0.287094E+01    0.165299E+01    0.100998E+01    0.411197E+00    0.121685E+01    0.128848E+00    0.933022E-01
    0.299186E+01    0.286506E+01    0.183692E+01    0.101797E+01    0.455139E+00    0.138016E+01    0.133481E+00    0.100307E+00
    0.306669E+01    0.280546E+01    0.204316E+01    0.101553E+01    0.506854E+00    0.157542E+01    0.137771E+00    0.109517E+00
    0.314424E+01    0.269518E+01    0.223501E+01    0.100171E+01    0.558275E+00    0.177913E+01    0.141075E+00    0.119842E+00
    0.322451E+01    0.251462E+01    0.246005E+01    0.975431E+00    0.622662E+00    0.203498E+01    0.144918E+00    0.133666E+00
    0.330751E+01    0.220329E+01    0.267306E+01    0.920335E+00    0.695987E+00    0.233316E+01    0.147726E+00    0.153568E+00
    0.339322E+01    0.175692E+01    0.273641E+01    0.822268E+00    0.750825E+00    0.258223E+01    0.145371E+00    0.181357E+00
    0.348166E+01    0.139267E+01    0.240174E+01    0.700417E+00    0.706222E+00    0.249213E+01    0.126984E+00    0.208970E+00
    0.357282E+01    0.124473E+01    0.208747E+01    0.629429E+00    0.640552E+00    0.231958E+01    0.110113E+00    0.222158E+00
    0.366670E+01    0.122094E+01    0.181113E+01    0.594793E+00    0.567825E+00    0.211025E+01    0.958424E-01    0.220526E+00
    0.376330E+01    0.128886E+01    0.157595E+01    0.591822E+00    0.495015E+00    0.188812E+01    0.854989E-01    0.204073E+00
    0.386262E+01    0.147129E+01    0.137201E+01    0.627559E+00    0.421494E+00    0.165013E+01    0.806989E-01    0.171723E+00
    0.396466E+01    0.173503E+01    0.140450E+01    0.704348E+00    0.412035E+00    0.165571E+01    0.889823E-01    0.148577E+00
    0.400000E+01    0.177333E+01    0.154768E+01    0.724715E+00    0.448676E+00    0.181902E+01    0.952768E-01    0.153438E+00
    0.400136E+01    0.177201E+01    0.154810E+01    0.724387E+00    0.448884E+00    0.182048E+01    0.952589E-01    0.153571E+00
    0.400544E+01    0.176734E+01    0.155319E+01    0.723478E+00    0.450597E+00    0.182929E+01    0.953311E-01    0.154231E+00
    0.401225E+01    0.176279E+01    0.156277E+01    0.722926E+00    0.453521E+00    0.184429E+01    0.955778E-01    0.155109E+00
    0.402177E+01    0.175824E+01    0.157662E+01    0.722684E+00    0.457606E+00    0.186532E+01    0.959900E-01    0.156200E+00
    0.403401E+01    0.175251E+01    0.159450E+01    0.722427E+00    0.462864E+00    0.189249E+01    0.965327E-01    0.157579E+00
    0.404898E+01    0.174369E+01    0.161611E+01    0.721623E+00    0.469355E+00    0.192615E+01    0.971526E-01    0.159385E+00
    0.406667E+01    0.172842E+01    0.164113E+01    0.719356E+00    0.477250E+00    0.196711E+01    0.977664E-01    0.161886E+00
    0.408708E+01    0.169905E+01    0.166921E+01    0.713558E+00    0.487060E+00    0.201762E+01    0.982015E-01    0.165742E+00
    0.411021E+01    0.165645E+01    0.167599E+01    0.702560E+00    0.492198E+00    0.205044E+01    0.975140E-01    0.169881E+00
    0.413606E+01    0.162230E+01    0.164986E+01    0.691219E+00    0.487772E+00    0.204478E+01    0.956751E-01    0.171887E+00
    0.416463E+01    0.160499E+01    0.162644E+01    0.684640E+00    0.482725E+00    0.203760E+01    0.943179E-01    0.172452E+00
    0.419592E+01    0.159392E+01    0.160318E+01    0.679774E+00    0.477200E+00    0.202942E+01    0.931058E-01    0.172411E+00
    0.422994E+01    0.158916E+01    0.157222E+01    0.676050E+00    0.469026E+00    0.201083E+01    0.917231E-01    0.171348E+00
    0.426667E+01    0.159481E+01    0.153717E+01    0.674926E+00    0.458876E+00    0.198439E+01    0.904304E-01    0.168995E+00
    0.430613E+01    0.161229E+01    0.150033E+01    0.677018E+00    0.447322E+00    0.195232E+01    0.893841E-01    0.165325E+00
    0.434831E+01    0.164359E+01    0.146226E+01    0.682949E+00    0.434433E+00    0.191464E+01    0.886904E-01    0.160217E+00
    0.439320E+01    0.169586E+01    0.142198E+01    0.694661E+00    0.419546E+00    0.186812E+01    0.885509E-01    0.153071E+00
    0.444082E+01    0.178437E+01    0.138610E+01    0.716780E+00    0.403691E+00    0.181700E+01    0.897074E-01    0.143281E+00
    0.449117E+01    0.187755E+01    0.143344E+01    0.745332E+00    0.410650E+00    0.186928E+01    0.939790E-01    0.138697E+00
    0.454423E+01    0.194445E+01    0.148106E+01    0.766410E+00    0.419229E+00    0.193088E+01    0.974786E-01    0.136336E+00
    0.460001E+01    0.200476E+01    0.152867E+01    0.785500E+00    0.428079E+00    0.199584E+01    0.100760E+00    0.134502E+00
    0.465852E+01    0.207074E+01    0.157693E+01    0.805923E+00    0.436600E+00    0.206146E+01    0.104185E+00    0.132336E+00
    0.471974E+01    0.216313E+01    0.162493E+01    0.832924E+00    0.443263E+00    0.212042E+01    0.108277E+00    0.128496E+00
    0.478369E+01    0.227247E+01    0.174275E+01    0.868161E+00    0.466434E+00    0.226150E+01    0.115025E+00    0.126780E+00
    0.485036E+01    0.234421E+01    0.193611E+01    0.898478E+00    0.509912E+00    0.250676E+01    0.123225E+00    0.129660E+00
    0.491975E+01    0.236555E+01    0.212597E+01    0.916552E+00    0.554634E+00    0.276562E+01    0.130213E+00    0.134159E+00
    0.499186E+01    0.236768E+01    0.231039E+01    0.930245E+00    0.598470E+00    0.302795E+01    0.136790E+00    0.138520E+00
    0.506669E+01    0.239152E+01    0.248900E+01    0.949148E+00    0.638485E+00    0.327883E+01    0.143715E+00    0.140641E+00
    0.514424E+01    0.237914E+01    0.283603E+01    0.973661E+00    0.718469E+00    0.374604E+01    0.156452E+00    0.145724E+00
    0.522451E+01    0.222960E+01    0.323085E+01    0.974566E+00    0.818116E+00    0.433216E+01    0.170120E+00    0.154818E+00
    0.530751E+01    0.192845E+01    0.361300E+01    0.946690E+00    0.927985E+00    0.499200E+01    0.184132E+00    0.167040E+00
    0.539322E+01    0.142108E+01    0.398117E+01    0.881572E+00    0.105794E+01    0.578298E+01    0.201259E+00    0.183368E+00
    0.548166E+01    0.776000E+00    0.402009E+01    0.756547E+00    0.114432E+01    0.635772E+01    0.211251E+00    0.208130E+00
    0.557282E+01    0.249963E+00    0.372012E+01    0.608488E+00    0.115640E+01    0.653172E+01    0.209732E+00    0.241539E+00
    0.566670E+01   -0.909530E-01    0.342938E+01    0.492794E+00    0.114865E+01    0.659719E+01    0.207374E+00    0.272454E+00
    0.576330E+01   -0.345427E+00    0.314800E+01    0.391025E+00    0.113154E+01    0.660973E+01    0.204831E+00    0.304497E+00
    0.586262E+01   -0.538519E+00    0.284468E+01    0.292932E+00    0.110009E+01    0.653676E+01    0.200380E+00    0.342520E+00
    0.596466E+01   -0.660295E+00    0.252557E+01    0.201670E+00    0.105086E+01    0.635293E+01    0.192380E+00    0.388913E+00
    0.606943E+01   -0.708968E+00    0.221852E+01    0.124403E+00    0.986534E+00    0.606880E+01    0.180216E+00    0.443125E+00
    0.617691E+01   -0.678443E+00    0.192424E+01    0.659451E-01    0.902597E+00    0.565078E+01    0.161137E+00    0.505568E+00
    0.628712E+01   -0.608655E+00    0.174041E+01    0.428835E-01    0.834422E+00    0.531717E+01    0.143358E+00    0.546924E+00
    0.640004E+01   -0.550480E+00    0.159077E+01    0.253254E-01    0.775740E+00    0.503202E+01    0.128072E+00    0.582141E+00
    0.651569E+01   -0.491795E+00    0.144867E+01    0.107989E-01    0.716596E+00    0.473236E+01    0.112716E+00    0.614647E+00
    0.663406E+01   -0.418279E+00    0.132434E+01    0.702274E-02    0.657551E+00    0.442133E+01    0.969447E-01    0.632967E+00
    0.675515E+01   -0.346057E+00    0.124831E+01    0.156686E-01    0.614524E+00    0.420743E+01    0.850986E-01    0.628582E+00
    0.687896E+01   -0.285972E+00    0.117767E+01    0.225577E-01    0.575844E+00    0.401487E+01    0.750973E-01    0.620891E+00
    0.700550E+01   -0.219956E+00    0.110996E+01    0.336064E-01    0.536934E+00    0.381244E+01    0.654243E-01    0.603082E+00
    0.713475E+01   -0.157123E+00    0.108557E+01    0.529122E-01    0.515507E+00    0.372784E+01    0.599410E-01    0.574710E+00
    0.726673E+01   -0.116452E+00    0.107498E+01    0.665447E-01    0.503954E+00    0.371170E+01    0.571099E-01    0.555190E+00
    0.740142E+01   -0.931509E-01    0.106433E+01    0.735741E-01    0.495693E+00    0.371853E+01    0.552479E-01    0.544366E+00
    0.753884E+01   -0.806938E-01    0.105452E+01    0.766349E-01    0.489731E+00    0.374201E+01    0.539754E-01    0.538807E+00
    0.767898E+01   -0.805493E-01    0.105042E+01    0.759733E-01    0.488127E+00    0.379909E+01    0.536595E-01    0.539016E+00
    0.782184E+01   -0.975675E-01    0.104604E+01    0.686324E-01    0.489431E+00    0.388011E+01    0.540528E-01    0.548071E+00
    0.796742E+01   -0.138700E+00    0.103784E+01    0.511853E-01    0.493650E+00    0.398639E+01    0.553375E-01    0.570571E+00
    0.811572E+01   -0.180065E+00    0.973887E+00    0.229911E-01    0.476000E+00    0.391541E+01    0.525818E-01    0.600887E+00
    0.826674E+01   -0.201812E+00    0.913207E+00    0.276041E-02    0.455347E+00    0.381522E+01    0.491534E-01    0.620785E+00
    0.842049E+01   -0.220234E+00    0.855810E+00   -0.157381E-01    0.434747E+00    0.371037E+01    0.458650E-01    0.638451E+00
    0.857695E+01   -0.232213E+00    0.780739E+00   -0.349096E-01    0.404490E+00    0.351629E+01    0.409498E-01    0.651131E+00
    0.873614E+01   -0.231188E+00    0.707036E+00   -0.478161E-01    0.371271E+00    0.328741E+01    0.354857E-01    0.648079E+00
    0.889805E+01   -0.223604E+00    0.637042E+00   -0.564182E-01    0.337566E+00    0.304436E+01    0.301002E-01    0.631602E+00
    0.906268E+01   -0.206863E+00    0.558174E+00   -0.611190E-01    0.297255E+00    0.273042E+01    0.239359E-01    0.593408E+00
    0.923002E+01   -0.172239E+00    0.478643E+00   -0.555571E-01    0.253400E+00    0.237057E+01    0.175024E-01    0.523515E+00
    0.940010E+01   -0.111126E+00    0.403208E+00   -0.343595E-01    0.208777E+00    0.198911E+01    0.114576E-01    0.423238E+00
    0.957289E+01   -0.401089E-01    0.379558E+00   -0.197697E-02    0.190155E+00    0.184499E+01    0.897727E-02    0.356240E+00
    0.974840E+01    0.727921E-02    0.387647E+00    0.214146E-01    0.189760E+00    0.187491E+01    0.884672E-02    0.332778E+00
    0.992664E+01    0.235508E-01    0.395277E+00    0.297511E-01    0.191928E+00    0.193101E+01    0.907483E-02    0.328330E+00
    0.101076E+02    0.235045E-01    0.380234E+00    0.284346E-01    0.184861E+00    0.189381E+01    0.843198E-02    0.318951E+00
    0.102913E+02    0.256797E-01    0.347222E+00    0.267761E-01    0.169084E+00    0.176366E+01    0.708495E-02    0.296118E+00
    0.104777E+02    0.310603E-01    0.315828E+00    0.269877E-01    0.153764E+00    0.163291E+01    0.589784E-02    0.271602E+00
    0.106668E+02    0.382408E-01    0.272419E+00    0.275277E-01    0.132561E+00    0.143315E+01    0.443995E-02    0.236443E+00
    0.108586E+02    0.570874E-01    0.218040E+00    0.335443E-01    0.105482E+00    0.116090E+01    0.295475E-02    0.187163E+00
    0.110532E+02    0.918450E-01    0.166545E+00    0.479311E-01    0.794636E-01    0.890224E+00    0.205028E-02    0.136527E+00
    0.112505E+02    0.136299E+00    0.128375E+00    0.676674E-01    0.601195E-01    0.685534E+00    0.191481E-02    0.981720E-01
    0.114505E+02    0.181163E+00    0.102838E+00    0.878404E-01    0.472671E-01    0.548562E+00    0.228145E-02    0.731569E-01
    0.116532E+02    0.225623E+00    0.786499E-01    0.107648E+00    0.355031E-01    0.419329E+00    0.289157E-02    0.521434E-01
    0.118586E+02    0.271000E+00    0.625838E-01    0.127728E+00    0.277477E-01    0.333508E+00    0.377305E-02    0.386473E-01
    0.120668E+02    0.313305E+00    0.539248E-01    0.146237E+00    0.235225E-01    0.287687E+00    0.476211E-02    0.312123E-01
    0.122777E+02    0.352228E+00    0.463026E-01    0.163024E+00    0.199061E-01    0.247712E+00    0.576461E-02    0.252928E-01
    0.124913E+02    0.389283E+00    0.412372E-01    0.178808E+00    0.174911E-01    0.221446E+00    0.679899E-02    0.213465E-01
    0.127076E+02    0.424088E+00    0.382492E-01    0.193459E+00    0.160245E-01    0.206392E+00    0.783188E-02    0.188467E-01
    0.129267E+02    0.457147E+00    0.355368E-01    0.207213E+00    0.147185E-01    0.192839E+00    0.885753E-02    0.167268E-01
    0.131485E+02    0.488994E+00    0.340063E-01    0.220323E+00    0.139333E-01    0.185683E+00    0.988562E-02    0.153302E-01
